Time(s),Cart Position(m),Cart Velocity(m/s),Hook Angle(deg),Hook Angle Rate(deg/s),Payload Angle(deg),Payload Angle Rate(deg/s),Force(N),Cart Acceleration(m/s^2)
0,8.33333e-08,3.48014e-08,0.00194304,-0.0278965,0.00424401,-0.00033686,0,-5.44709e-07,-0.785082,-0.0222442
0.023,5.30278e-06,1.58498e-05,0.00178964,-0.0313156,0.00424401,-0.00263185,201.765,0.00127756,0.0325111,-0.271902
0.042,2.43167e-05,7.35468e-05,0.00163625,-0.0287898,0.00393722,-0.00815932,201.751,0.00296838,-0.269168,-0.243093
0.052,5.36667e-05,0.000234318,0.00178964,-0.0271788,0.00424401,-0.00932281,202.136,0.00405879,-0.176292,0.487542
0.064,9.77611e-05,0.000539346,0.00168738,-0.0257017,0.00470421,-0.00547451,203.441,0.00933505,-0.44648,-0.160166
0.073,0.000154517,0.000972996,0.00143172,-0.0267275,0.00363042,-0.012211,206.031,0.0125332,-0.402484,-0.909126
0.084,0.000229669,0.00155905,0.00127832,-0.0307599,0.00363042,-0.0188881,209.324,0.0205776,-0.762154,0.491844
0.092,0.000319819,0.00232949,0.00117605,-0.0341555,0.00301683,-0.018866,213.713,0.024861,-0.103514,-0.38805
0.102,0.00042885,0.00329687,0.00117605,-0.0323438,0.0028123,-0.0233885,219.599,0.0342288,-0.223393,-0.0174899
0.11,0.000556297,0.00444369,0.00117605,-0.0311994,0.00317023,-0.0218627,226.68,0.0416168,-0.321303,0.510683
0.12,0.000706169,0.00578244,0.000153398,-0.0390124,0.00322136,-0.0195967,234.565,0.0524929,-1.50367,-0.237096
0.13,0.000881867,0.00719786,-5.11327e-05,-0.0465618,0.00317023,-0.0203343,242.48,0.0622374,0.00621543,0.166088
0.14,0.00108573,0.00884587,-0.000204531,-0.0436496,0.00291456,-0.0220711,249.395,0.0724045,-0.24051,-0.163164
0.15,0.00132006,0.010744,0.000357929,-0.0384227,0.00301683,-0.023321,255.915,0.0833314,0.143932,0.370889
0.16,0.00158715,0.0129114,0.000204531,-0.0352289,0.0028123,-0.0226757,261.284,0.095011,-0.81928,-0.323982
0.17,0.0018893,0.015367,-0.000255663,-0.0381264,0.00306796,-0.0221644,264.976,0.107465,-0.324997,0.511185
0.18,0.00222892,0.0181307,-0.00127832,-0.0451998,0.00322136,-0.0177329,266.623,0.120762,-1.29652,-0.0342306
0.19,0.00260845,0.0212229,-0.00163625,-0.0522731,0.00291456,-0.02046,266.405,0.134876,0.118153,-0.426248
0.2,0.00303001,0.0246623,-0.0023521,-0.0529549,0.00291456,-0.0228462,264.367,0.149595,-0.768147,0.306654
0.21,0.00349556,0.0284653,-0.0029657,-0.0561649,0.00271003,-0.0227082,261.147,0.164906,-0.19417,-0.210238
0.22,0.00400704,0.0326478,-0.00419288,-0.0655555,0.00271003,-0.0254353,256.866,0.180869,-1.68857,0.00975204
0.23,0.00456631,0.0372257,-0.00506214,-0.0793613,0.0029657,-0.0221116,251.527,0.197409,-0.035284,0.623344
0.24,0.00517472,0.0422116,-0.00567573,-0.0822588,0.00301683,-0.0176801,245.536,0.214252,-0.478434,-0.177734
0.25,0.00583351,0.0476155,-0.00659612,-0.0808953,0.00317023,-0.0181915,239.236,0.231449,0.356733,0.0949732
0.26,0.00654392,0.0534474,-0.0078233,-0.0834519,0.00317023,-0.0192993,232.358,0.249079,-1.43291,-0.194779
0.27,0.00730677,0.0597158,-0.00925502,-0.0983656,0.00291456,-0.0204924,224.823,0.26682,-0.751142,0.214283
0.28,0.00812233,0.0664238,-0.0108913,-0.109615,0.00276117,-0.0202368,216.444,0.284492,-0.717053,-0.0925133
0.29,0.00899113,0.0735742,-0.0127832,-0.122398,0.00219871,-0.0250092,207.656,0.302404,-0.972717,-0.416354
0.3,0.00991331,0.0811698,-0.0151353,-0.140635,0.0025055,-0.0216855,198.176,0.32025,-1.33065,1.21989
0.31,0.0108884,0.0892079,-0.0166181,-0.156486,0.00219871,-0.0140156,188.234,0.337705,-0.376169,-0.484531
0.32,0.0119162,0.0976854,-0.0177942,-0.163219,0.000818123,-0.0237308,177.938,0.355264,-0.393213,-0.842459
0.33,0.0129911,0.106558,-0.0193793,-0.173159,-0.000920388,-0.0390216,166.933,0.36779,-0.843312,-0.698108
0.34,0.0141036,0.115724,-0.0209133,-0.186348,-0.00189191,-0.0495403,155.267,0.375416,-0.65741,-0.0210925
0.35,0.0152561,0.125097,-0.0220382,-0.197177,-0.00337476,-0.0589146,143.325,0.388554,-0.499026,-0.86084
0.36,0.0164434,0.134637,-0.0234188,-0.207612,-0.00506214,-0.0770977,131.257,0.393097,-0.580444,-0.742235
0.37,0.0176662,0.144333,-0.0259754,-0.223476,-0.00424401,-0.0755638,118.823,0.401948,-1.2638,1.97023
0.38,0.0189169,0.154136,-0.0268447,-0.236429,-0.0054712,-0.0686608,106.596,0.400684,0.133829,-1.45566
0.39,0.0201976,0.163984,-0.0279184,-0.240986,-0.00659612,-0.0804393,94.4925,0.407103,-0.564985,0.144139
0.4,0.0215028,0.173862,-0.0302194,-0.256127,-0.00802783,-0.086632,82.1255,0.40405,-1.37806,-0.683663
0.41,0.0228308,0.183746,-0.0303728,-0.266799,-0.00997087,-0.103619,69.6484,0.403717,0.504804,-1.21687
0.42,0.0241758,0.193598,-0.0307307,-0.259839,-0.0117094,-0.122292,57.0545,0.396606,0.494283,-0.426106
0.43,0.0255327,0.203479,-0.0317534,-0.260351,-0.0133456,-0.135331,44.939,0.389072,-0.76699,-0.460194
0.44,0.0268972,0.213195,-0.033543,-0.27373,-0.0151353,-0.147944,32.7989,0.379978,-0.818123,-0.494283
0.45,0.0282644,0.222694,-0.0340544,-0.285917,-0.0174362,-0.164988,20.5898,0.368444,-0.170442,-1.09083
0.46,0.0296303,0.231918,-0.0345657,-0.290348,-0.0198906,-0.185697,8.59579,0.354839,0.11931,-0.698813
0.47,0.0309899,0.240811,-0.0370201,-0.300319,-0.0216291,-0.202912,-2.9427,0.338757,-1.21014,-0.579504
0.48,0.0323385,0.249312,-0.0366621,-0.302791,-0.0239301,-0.221405,-14.1172,0.320127,1.58511,-0.971521
0.49,0.0336708,0.257359,-0.0364576,-0.289752,-0.025822,-0.238278,-24.6622,0.298895,-0.0852212,-0.238619
0.5,0.034982,0.264889,-0.0372246,-0.289496,-0.0280207,-0.253107,-34.2462,0.275499,-0.221575,-0.937433
0.51,0.0362672,0.271848,-0.0367644,-0.28532,-0.0302194,-0.271429,-43.4918,0.249859,0.732902,-0.596548
0.52,0.0375215,0.278177,-0.0365087,-0.272452,-0.0321113,-0.287195,-52.0691,0.22197,0.630637,-0.596548
0.53,0.0387403,0.283823,-0.0374803,-0.267339,-0.0343612,-0.305859,-59.6573,0.192142,-0.56246,-1.0397
0.551,0.0399264,0.285246,-0.0378893,-0.266698,-0.0364576,-0.319379,-66.7412,0.171115,-0.287251,-0.725896
0.56,0.0410656,0.286239,-0.0370201,-0.257864,-0.0392188,-0.333667,-69.349,0.14487,0.297934,-1.08193
0.57,0.0421545,0.290053,-0.0374803,-0.245278,-0.0413663,-0.356507,-71.2909,0.107466,-1.05399,-0.246811
0.58,0.0431905,0.29251,-0.0356395,-0.228063,-0.0435651,-0.372102,-76.2653,0.0712145,0.957229,-0.366121
0.59,0.0441729,0.29408,-0.0343612,-0.198406,-0.0454058,-0.386675,-79.49,0.0353654,-0.116557,-0.263855
0.6,0.0451005,0.294752,-0.0332874,-0.174459,-0.0471443,-0.397754,-81.4183,-0.00110314,0.036841,-0.00819195
0.61,0.0459728,0.294519,-0.0305773,-0.139177,-0.0486272,-0.40977,-82.4295,-0.037668,1.41742,-0.587696
0.62,0.0467896,0.29338,-0.02889,-0.102958,-0.0498544,-0.42136,-82.2042,-0.073592,-0.542663,0.196339
0.63,0.0475507,0.291338,-0.0286854,-0.0886413,-0.0503146,-0.418377,-80.9642,-0.109827,-1.10512,1.13377
0.64,0.0482559,0.28842,-0.0269469,-0.070404,-0.05011,-0.402526,-78.924,-0.142297,0.786787,1.20195
0.65,0.0489061,0.284705,-0.0255152,-0.0412584,-0.0509793,-0.393834,-75.5153,-0.169692,-0.0995128,-0.366121
0.66,0.0495019,0.280226,-0.0248505,-0.023021,-0.0513372,-0.390936,-71.1373,-0.201817,-0.764238,0.929241
0.67,0.050044,0.274987,-0.023521,-0.00546549,-0.0521042,-0.38088,-66.3215,-0.229321,0.241372,0.452002
0.68,0.0505337,0.269023,-0.0201974,0.0345032,-0.0524621,-0.384033,-60.4964,-0.25839,2.04806,-0.877448
0.69,0.0509731,0.262377,-0.0193793,0.0678247,-0.0518997,-0.382499,-53.627,-0.281272,-1.80394,1.7985
0.7,0.0513639,0.255092,-0.0178964,0.0792443,-0.0502634,-0.357785,-46.0239,-0.307565,0.173195,1.45761
0.71,0.051708,0.24719,-0.0149819,0.115293,-0.0490874,-0.333923,-37.6491,-0.328851,1.65604,1.03151
0.72,0.0520081,0.238728,-0.0148796,0.138388,-0.0480647,-0.310658,-27.9632,-0.349646,-2.53684,1.32126
0.73,0.0522668,0.229758,-0.0137547,0.138388,-0.0460706,-0.281512,-17.9385,-0.366393,-0.0654243,1.71328
0.74,0.0524865,0.220354,-0.0117094,0.160716,-0.0454058,-0.256287,-7.7133,-0.380727,0.582256,0.503135
0.75,0.0526702,0.210575,-0.00991974,0.191481,-0.043923,-0.23464,3.51427,-0.392814,0.39477,1.62805
0.76,0.0528207,0.200483,-0.00879482,0.212445,-0.041622,-0.199103,15.3504,-0.402399,-1.07103,2.19051
0.77,0.0529399,0.190133,-0.00705631,0.22591,-0.0387586,-0.154959,27.715,-0.410233,-0.0142917,2.2246
0.78,0.0530303,0.179582,-0.00337476,0.265112,-0.0363553,-0.115331,40.4771,-0.415388,2.3719,1.20195
0.79,0.0530943,0.168891,-0.0023521,0.295365,-0.0332874,-0.0766404,54.072,-0.41801,-2.57093,2.41209
0.8,0.0531347,0.158124,-0.00117605,0.29332,-0.0300149,-0.0308766,67.6694,-0.417877,-0.542663,1.86667
0.81,0.0531544,0.147347,0.00127832,0.313176,-0.0268447,0.0128418,80.8214,-0.415133,0.854964,2.0712
0.82,0.0531568,0.136629,0.00245437,0.331243,-0.0233676,0.0594578,94.5588,-0.409424,-1.56532,2.20756
0.83,0.0531454,0.126039,0.00383495,0.335078,-0.0204019,0.103176,108.342,-0.400907,-0.457442,1.55988
0.84,0.0531237,0.115646,0.00669838,0.358685,-0.0172317,0.145105,121.639,-0.389902,1.21289,2.20756
0.85,0.0530888,0.108973,0.00884596,0.386167,-0.0143683,0.182316,135.228,-0.391085,-0.0849693,1.84262
0.86,0.0530548,0.102268,0.0100731,0.395655,-0.0108913,0.222427,144.558,-0.377062,-0.755376,2.57363
0.87,0.0530249,0.092361,0.0130388,0.410169,-0.00705631,0.276372,153.582,-0.354797,2.16462,1.90895
0.89,0.0530112,0.0835273,0.013857,0.415964,-0.00352816,0.314182,166.836,-0.332116,-0.706389,2.00364
0.9,0.0530085,0.0752287,0.0157489,0.40534,0.000511327,0.351765,178.27,-0.313079,1.07189,1.94494
0.91,0.0530188,0.0674664,0.018101,0.416504,0.00495987,0.402556,188.706,-0.289483,0.969627,2.09833
0.92,0.0530445,0.0602888,0.0186123,0.41088,0.0082835,0.447724,199.399,-0.264886,-1.56996,1.07568
0.93,0.0530879,0.0537177,0.0198395,0.395455,0.011965,0.485988,208.873,-0.23973,0.748052,1.60405
0.94,0.0531513,0.0477732,0.0220382,0.406789,0.0157489,0.523741,217.233,-0.213569,1.80479,1.12681
0.95,0.0532374,0.0424784,0.0233165,0.415226,0.0186634,0.55033,225.493,-0.186504,-0.649575,0.325734
0.96,0.0533485,0.0378496,0.0248505,0.410113,0.0214757,0.575214,232.618,-0.159351,0.543522,1.48474
0.97,0.0534868,0.0338981,0.0266913,0.417271,0.0249016,0.608025,238.536,-0.131577,1.07189,1.22908
0.98,0.0536549,0.030639,0.0280718,0.423237,0.0280718,0.640494,244.068,-0.103129,-0.0359823,1.29726
0.99,0.053855,0.0280836,0.0289922,0.409516,0.0304751,0.667679,248.637,-0.0746632,-1.29726,0.462088
1,0.0540892,0.0262332,0.0298615,0.39767,0.0325715,0.682593,251.65,-0.0465641,1.15711,0.0359823
1.01,0.0543591,0.0250854,0.0303728,0.397074,0.0345657,0.687451,253.503,-0.0184697,-0.342778,-0.338991
1.02,0.0546668,0.0246411,0.0312932,0.38216,0.036611,0.69103,254.564,0.00974146,-0.683663,0.393911
1.03,0.0550137,0.0248942,0.0328783,0.381223,0.0385029,0.699126,254.502,0.0369831,1.97524,0.223469
1.04,0.0554018,0.0258361,0.0337987,0.390938,0.0401903,0.700489,254.203,0.064497,-0.30869,-0.560566
1.05,0.0558308,0.0274521,0.0345146,0.380797,0.0426447,0.706455,253.291,0.0900137,-0.496176,1.22908
1.06,0.0563025,0.0297223,0.0356906,0.371422,0.0452013,0.721283,251.235,0.11597,0.356035,0.0530265
1.07,0.0568185,0.032641,0.0356906,0.364945,0.0470932,0.721624,248.585,0.141372,-0.223469,-0.69692
1.08,0.0573804,0.0362022,0.0357929,0.352162,0.0480647,0.70833,244.777,0.167041,-0.393911,-1.1912
1.09,0.0579912,0.0404086,0.0357929,0.327448,0.0483204,0.688814,239.602,0.193045,-1.58701,-0.867362
1.1,0.0586498,0.0452455,0.0360485,0.307932,0.0491385,0.66998,233.119,0.216641,1.0378,-0.850318
1.11,0.0593585,0.0506927,0.0362531,0.305376,0.0498544,0.649527,225.961,0.241067,-0.0700707,-1.02076
1.12,0.0601181,0.0567431,0.0365599,0.291059,0.0508259,0.6295,218.41,0.264234,-0.785928,-0.679875
1.13,0.060929,0.0633716,0.0363553,0.275037,0.0509793,0.60615,209.837,0.286084,0.117416,-1.54913
1.14,0.0617922,0.0705536,0.0362531,0.264299,0.0514906,0.580924,200.438,0.307207,-0.206425,-0.594654
1.15,0.0627041,0.0782468,0.0363042,0.245124,0.0526155,0.563965,190.459,0.324633,-1.05864,-0.611699
1.16,0.0636652,0.0864375,0.0360485,0.221518,0.0534337,0.547603,179.873,0.346503,-0.342778,-0.748052
1.17,0.064674,0.0950754,0.0355372,0.205497,0.0542007,0.527235,168.613,0.356897,-0.0359823,-1.1912
1.18,0.0657283,0.10405,0.0344634,0.180612,0.0536382,0.495106,156.929,0.368866,-1.79154,-2.09455
1.19,0.0668187,0.113199,0.033134,0.158199,0.0533314,0.468802,144.365,0.373605,-0.880619,-1.33703
1.21,0.0679955,0.119607,0.0326227,0.147518,0.0522065,0.44369,131.828,0.393025,-1.23665,-1.81426
1.22,0.0692081,0.126299,0.0317534,0.124537,0.051644,0.401846,122.76,0.38573,-1.41278,-1.62867
1.23,0.0704534,0.136442,0.0303217,0.10272,0.0508259,0.36469,112.655,0.389821,-0.287858,-1.1003
1.24,0.0717291,0.146698,0.0294013,0.0876358,0.0494453,0.327022,98.7559,0.392485,-0.850318,-2.00364
1.25,0.0730294,0.157012,0.0287877,0.0660748,0.0467353,0.276145,84.926,0.391296,-1.22529,-2.65132
1.26,0.0743521,0.167326,0.0278673,0.0445991,0.0445366,0.226546,70.5984,0.389572,-0.594654,-1.2537
1.27,0.0756934,0.177598,0.0256686,0.0196293,0.0430026,0.190072,56.3562,0.385435,-1.82184,-1.20257
1.28,0.077049,0.187775,0.0243392,-0.0112208,0.0407016,0.148228,42.4506,0.378892,-0.935539,-2.37862
1.29,0.0784155,0.197803,0.0237767,-0.030566,0.038554,0.100248,28.4329,0.370691,-0.304902,-1.64572
1.3,0.079787,0.207623,0.0212712,-0.0521269,0.0352304,0.0545699,14.7685,0.358846,-1.70253,-2.05478
1.31,0.0811596,0.217175,0.0202997,-0.0752219,0.0324693,0.0105106,1.39502,0.346037,-0.151504,-1.33892
1.32,0.0825288,0.226411,0.0198395,-0.0835735,0.0290434,-0.031333,-11.6236,0.330758,-0.100372,-2.00364
1.33,0.0838896,0.235275,0.0182032,-0.0981464,0.0259243,-0.0761593,-23.8242,0.31318,-1.44687,-1.64572
1.36,0.0852749,0.238177,0.0164136,-0.118003,0.0224984,-0.106029,-35.7895,0.30444,-1.68122,-1.6031
1.37,0.0866356,0.240745,0.0136013,-0.139138,0.0190214,-0.135175,-41.0724,0.283767,-1.17416,-1.50084
1.38,0.087969,0.2484,0.0124252,-0.161636,0.0155443,-0.181791,-45.9887,0.260439,0.172336,-2.0633
1.39,0.0892698,0.255446,0.0121696,-0.172033,0.0114026,-0.236332,-56.7983,0.232798,-0.13446,-2.31896
1.4,0.0905331,0.261821,0.00991974,-0.187288,0.00777217,-0.28755,-66.7989,0.203454,-0.833274,-1.27926
1.41,0.0917548,0.267474,0.00920388,-0.200241,0.00480647,-0.323684,-76.0659,0.172348,0.393911,-0.614539
1.42,0.0929295,0.272347,0.00869256,-0.203139,0.00153398,-0.351807,-84.0901,0.137653,0.121203,-0.870203
1.43,0.094056,0.276407,0.00608479,-0.218649,-0.00209644,-0.385129,-90.7954,0.105524,-1.54913,-1.62015
1.44,0.0951315,0.27964,0.00577799,-0.234671,-0.00582913,-0.423734,-97.0334,0.0701637,0.802973,-1.31335
1.45,0.0961545,0.282012,0.00444854,-0.240636,-0.00956181,-0.462083,-102.501,0.0349618,-0.731008,-1.48379
1.46,0.0971236,0.283508,0.00357929,-0.251289,-0.0122718,-0.492507,-106.768,-0.000800206,0.291646,-0.171389
1.47,0.0980364,0.284108,0.00163625,-0.261089,-0.0157489,-0.518926,-110,-0.0379558,-0.816229,-1.53493
1.48,0.0988951,0.283827,0.00076699,-0.273787,-0.0197372,-0.559662,-112.133,-0.0704752,0.18938,-1.9099
1.49,0.0996973,0.282683,-0.000306796,-0.279412,-0.0233676,-0.600823,-113.728,-0.106619,-0.0492389,-1.09178
1.5,0.100443,0.280661,-0.00132945,-0.284525,-0.0268447,-0.635764,-114.217,-0.140897,0.121203,-1.177
1.51,0.101132,0.277784,-0.00199417,-0.283673,-0.0298104,-0.661586,-113.58,-0.174043,0.63253,-0.0179911
1.52,0.101763,0.274103,-0.00255663,-0.27694,-0.0329295,-0.68059,-111.633,-0.202703,0.564353,-0.904291
1.53,0.102292,0.272366,-0.00475534,-0.284695,-0.0354861,-0.699879,-108.482,-0.272456,-0.840849,-0.197902
1.54,0.102766,0.269573,-0.00582913,-0.296996,-0.0388097,-0.718798,-107.669,-0.271955,0.681769,-1.18457
1.55,0.103186,0.262838,-0.0056246,-0.287025,-0.0418265,-0.741211,-105.803,-0.299517,1.41467,-0.366451
1.56,0.103553,0.255402,-0.00731197,-0.282338,-0.0442298,-0.752716,-99.2566,-0.3267,-0.801079,0.230097
1.57,0.103871,0.247317,-0.00925502,-0.295547,-0.0449456,-0.744194,-91.7596,-0.348542,-0.374973,1.8493
1.58,0.104138,0.238637,-0.0103288,-0.301683,-0.0460706,-0.727149,-83.4462,-0.371806,0.596548,0.230097
1.59,0.104356,0.229386,-0.0102265,-0.288729,-0.0476045,-0.725104,-74.0346,-0.392406,1.84078,-0.178964
1.6,0.104529,0.219618,-0.0112492,-0.275435,-0.0483204,-0.718968,-63.8231,-0.410134,-0.306796,1.23571
1.61,0.104657,0.209384,-0.0128854,-0.283105,-0.0486272,-0.701839,-52.8568,-0.427288,-0.56246,0.877778
1.62,0.104745,0.198744,-0.0129366,-0.276713,-0.048167,-0.676358,-41.5324,-0.438792,2.24984,2.08792
1.63,0.104795,0.187776,-0.0145728,-0.265975,-0.0478602,-0.645167,-29.1191,-0.449881,-1.00561,0.962999
1.64,0.10481,0.176532,-0.0166181,-0.281315,-0.0469909,-0.614658,-15.9971,-0.457458,-0.579504,2.01974
1.65,0.104795,0.165087,-0.0176408,-0.285065,-0.0464796,-0.580143,-3.12462,-0.462091,1.1931,1.16753
1.66,0.104716,0.158863,-0.0184589,-0.282679,-0.0456615,-0.561437,10.4576,-0.499324,0.916127,1.56807
1.67,0.104619,0.15228,-0.0174362,-0.26981,-0.0445366,-0.537916,18.0335,-0.482969,2.23279,1.65329
1.68,0.10451,0.140225,-0.0186123,-0.252255,-0.0436162,-0.499993,26.4265,-0.475987,-1.27832,1.39763
1.69,0.104392,0.128344,-0.0197884,-0.263248,-0.0420822,-0.457297,41.5478,-0.465456,-0.613592,2.31802
1.7,0.104267,0.116709,-0.0191236,-0.253277,-0.0399858,-0.407613,55.9846,-0.452565,2.24984,1.926
1.71,0.104137,0.105375,-0.0200951,-0.238449,-0.0385029,-0.366195,70.9177,-0.437999,-1.14196,1.05674
1.72,0.104006,0.0944046,-0.0216803,-0.249954,-0.0366621,-0.327931,85.5049,-0.420031,-0.630637,1.926
1.73,0.103876,0.0838476,-0.0211178,-0.239045,-0.0352816,-0.284724,99.027,-0.402201,2.47141,1.63625
1.74,0.103749,0.0737302,-0.0224473,-0.226518,-0.0337987,-0.242113,112.809,-0.383008,-1.73851,1.80669
1.75,0.103626,0.0640799,-0.0236744,-0.236403,-0.0321113,-0.197287,126.166,-0.363254,0.409062,1.87487
1.76,0.103509,0.0549211,-0.0237256,-0.230097,-0.0308841,-0.159193,138.535,-0.342252,0.511327,0.818123
1.77,0.103399,0.0462847,-0.0234699,-0.215183,-0.0293502,-0.123485,150.602,-0.319753,1.1931,2.02826
1.78,0.103298,0.0381846,-0.0240835,-0.204275,-0.0280207,-0.0784035,162.231,-0.298596,-0.56246,1.87487
1.79,0.103209,0.0306379,-0.024646,-0.204105,-0.0260265,-0.0320432,173.329,-0.274206,0.255663,1.97713
1.8,0.103134,0.0236795,-0.0247994,-0.197628,-0.0243392,0.0130388,183.314,-0.249993,0.409062,1.56807
1.81,0.103076,0.0173223,-0.0250039,-0.191833,-0.0222939,0.0545415,191.827,-0.225151,0.0170442,1.6192
1.82,0.103035,0.0115924,-0.0252595,-0.189447,-0.0206065,0.0950216,196.68,-0.198344,0.0511327,1.53398
1.83,0.103016,0.00674446,-0.0244414,-0.173595,-0.018868,0.132178,193.597,-0.14111,1.90895,1.26127
1.86,0.103056,0.00286907,-0.0247482,-0.156679,-0.0171295,0.163667,178.935,-0.131343,0.336624,1.95583
1.87,0.103122,-0.000442991,-0.0249528,-0.157957,-0.0157489,0.197457,155.825,-0.114103,-0.0298274,1.43598
1.88,0.103217,-0.00284969,-0.0245437,-0.150799,-0.0141126,0.231205,130.218,-0.0864435,2.03252,1.41893
1.89,0.103342,-0.00458452,-0.0239301,-0.126852,-0.0130388,0.253022,112.179,-0.0607509,1.50415,0.0383495
1.9,0.103494,-0.00566702,-0.0238278,-0.111682,-0.0118117,0.266998,101.115,-0.035038,0.430367,1.16327
1.91,0.103676,-0.006104,-0.0235722,-0.109296,-0.0100731,0.292138,95.1441,-0.00960556,0.208792,1.58937
1.92,0.103885,-0.00591599,-0.0229074,-0.102052,-0.00905049,0.313273,93.272,0.0138296,1.57233,0.259925
1.93,0.104122,-0.00512573,-0.022754,-0.0849229,-0.00833463,0.321625,94.8532,0.0375056,1.12918,0.294013
1.94,0.104386,-0.00376173,-0.0223961,-0.0767416,-0.00807897,0.322818,99.9074,0.0579917,0.174703,-0.285491
1.95,0.104676,-0.00186508,-0.0222427,-0.0687309,-0.00756764,0.321113,108.873,0.0781667,1.55529,0.396278
1.96,0.104991,0.000538051,-0.0213735,-0.0458916,-0.00700518,0.320943,122.962,0.0968417,1.84504,-0.0809601
1.97,0.105329,0.00340549,-0.0207599,-0.0261203,-0.00639159,0.319579,142.747,0.113034,0.617853,0.36219
1.98,0.105691,0.00688109,-0.0199929,-0.0148711,-0.00536893,0.321625,165.237,0.153201,1.00987,0.294013
1.99,0.106075,0.0109015,-0.0206065,-0.0178538,-0.00526667,0.317364,186.337,0.150522,-1.12066,-0.558199
2,0.106483,0.0151526,-0.019635,-0.0179391,-0.00485761,0.309353,199.808,0.161044,2.47567,0.191748
2.01,0.106915,0.0196851,-0.0197372,0.000894822,-0.00475534,0.301342,204.58,0.171756,0.498544,-0.592287
