Time(s),Cart Position(m),Cart Velocity(m/s),Hook Angle(deg),Hook Angle Rate(deg/s),Payload Angle(deg),Payload Angle Rate(deg/s),Force(N),Cart Acceleration(m/s^2)
10.356,8.33333e-08,1.99406e-22,-0.00148285,-0.0104723,-0.00184078,-0.0173419,0,1.69603e-19,0.269896,-1.20868
10.366,9.72222e-08,1.8287e-08,-0.00143172,-0.0167239,-0.00230097,-0.0211606,37.377,6.17284e-06,-2.16418,0.25388
10.394,1.16667e-07,4.13865e-08,-0.00143172,-0.022329,-0.0026589,-0.0175734,38.0366,6.00185e-06,1.68039,0.217159
10.405,1.38889e-07,6.63944e-08,-0.00143172,-0.0167637,-0.00276117,-0.0165979,38.6962,6.00185e-06,-0.075154,-0.893188
10.413,1.61111e-07,1.1901e-07,-0.00112492,-0.0157384,-0.00322136,-0.019652,39.5756,5.31788e-06,0.2599,-0.562641
10.426,1.86111e-07,1.68936e-07,-0.00117605,-0.0146468,-0.00286343,-0.0214065,40.2352,6.43767e-06,0.0774922,-0.396555
10.446,2.13889e-07,2.05141e-07,-0.00173851,-0.014644,-0.00301683,-0.0244254,40.8948,6.6644e-06,0.00180963,-0.523393
10.456,2.41667e-07,2.46591e-07,-0.00168738,-0.0155329,-0.00291456,-0.0259831,41.5544,6.39005e-06,-0.149492,0.682147
10.466,2.72222e-07,3.11206e-07,-0.00168738,-0.014781,-0.00224984,-0.0222622,42.4338,7.62462e-06,0.373879,0.288217
10.476,3.02778e-07,3.79477e-07,-0.00163625,-0.012869,-0.00189191,-0.0198967,43.0934,7.00733e-06,-0.0743903,0.0481621
10.486,3.36111e-07,4.50187e-07,-0.000511327,-0.0110699,-0.00153398,-0.0180639,43.753,8.2419e-06,0.363547,0.195629
10.496,3.69444e-07,5.24554e-07,-0.00056246,-0.0109023,-0.000869256,-0.0151986,44.6325,7.62462e-06,-0.643841,0.314461
10.506,4.05556e-07,6.0136e-07,-0.000511327,-0.0125641,-0.000920388,-0.0139771,45.2921,8.85919e-06,0.239228,-0.331214
10.516,4.44444e-07,6.8548e-07,-0.000357929,-0.0114285,-0.00138058,-0.0166886,45.9517,9.47647e-06,0.0102551,-0.475571
10.526,4.83333e-07,7.72039e-07,-0.000255663,-0.0115945,-0.00148285,-0.0183145,46.6113,8.85919e-06,-0.186489,0.26748
10.536,5.22222e-07,8.57379e-07,-0.000306796,-0.0118462,-0.000153398,-0.0166479,47.4907,8.85919e-06,0.0846235,0.209555
10.546,5.61111e-07,9.42718e-07,0.000102265,-0.0103511,0.000102265,-0.0164231,48.1503,8.85919e-06,0.225164,-0.308319
10.556,6.02778e-07,1.03171e-06,0.00112492,-0.00723493,0.000306796,-0.0165586,48.8099,1.00938e-05,0.374362,0.286403
10.566,6.47222e-07,1.12803e-06,0.000818123,-0.00587849,0.00056246,-0.0145704,49.4695,1.0711e-05,-0.413377,0.1334
10.576,6.91667e-07,1.22678e-06,0.000715858,-0.00708468,0.000306796,-0.0149341,50.349,1.00938e-05,-0.0246455,-0.425642
10.586,7.38889e-07,1.32796e-06,0.00178964,-0.00538387,0.000153398,-0.0160681,51.0086,1.13283e-05,0.440926,0.190534
10.596,7.88889e-07,1.43647e-06,0.00224984,-0.00443176,0.000153398,-0.0151988,51.6682,1.19456e-05,-0.482322,0.0249287
10.606,8.41667e-07,1.55107e-06,0.00204531,-0.00570942,0.000409062,-0.0141446,52.5476,1.25629e-05,0.101338,0.178148
10.616,8.97222e-07,1.67176e-06,0.00194304,-0.00534549,5.11327e-05,-0.0133874,53.2072,1.31802e-05,-0.0550104,-0.134126
10.626,9.52778e-07,1.79489e-06,0.00178964,-0.00542439,0.000102265,-0.0129748,53.8668,1.25629e-05,-0.041079,0.176906
10.636,1.01111e-06,1.92046e-06,0.00143172,-0.00493413,0.00102265,-0.0103811,54.5264,1.37975e-05,0.103699,0.389357
10.646,1.07222e-06,2.05335e-06,0.00138058,-0.00458443,0.000511327,-0.00976696,55.4059,1.44147e-05,-0.149809,-0.538085
10.656,1.13611e-06,2.19233e-06,0.00230097,-0.00313567,0.000357929,-0.011585,56.0654,1.5032e-05,0.463783,0.0755078
10.666,1.20278e-06,2.33741e-06,0.00214757,-0.000948324,0.000306796,-0.0114146,56.725,1.56493e-05,-0.183898,0.00733086
10.676,1.26944e-06,2.48492e-06,0.00245437,-0.00128921,0.00117605,-0.00973856,57.3846,1.5032e-05,-0.104358,0.416392
10.686,1.33889e-06,2.63488e-06,0.00291456,-0.000976731,0.00112492,-0.00573316,58.2641,1.62666e-05,0.111535,0.40503
10.696,1.39722e-06,2.77386e-06,0.00352816,0.00229008,0.000869256,-0.00320493,58.9237,1.0711e-05,0.622862,-0.151749
10.706,1.45278e-06,2.89334e-06,0.00368155,0.00586937,0.00153398,-0.00272201,59.5833,1.19456e-05,-0.127084,0.0527821
10.716,1.50833e-06,3.01403e-06,0.00363042,0.00547167,0.00138058,-0.00209706,60.4627,1.25629e-05,-0.308889,-0.0267576
10.726,1.56944e-06,3.14326e-06,0.00347702,0.00453424,0.00158511,-0.00127325,61.1223,1.5032e-05,0.00927006,0.155048
10.736,1.63056e-06,3.2798e-06,0.00271003,0.0047899,0.000920388,-0.000591486,61.7819,1.37975e-05,0.0206329,-0.11766
10.746,1.69167e-06,3.41391e-06,0.00260777,0.00584096,0.00112492,0.00102772,62.4415,1.37975e-05,0.16835,0.484569
10.756,1.75556e-06,3.55167e-06,0.00291456,0.00757379,0.000971521,0.00341391,63.321,1.5032e-05,0.100173,-0.129023
10.766,1.81944e-06,3.69309e-06,0.00332362,0.00848282,0.00056246,0.00236285,63.9806,1.44147e-05,-0.0929953,-0.333554
10.776,1.88611e-06,3.83695e-06,0.00332362,0.00825556,0.000306796,0.000743646,64.6402,1.56493e-05,-0.115721,-0.0267576
10.786,1.95278e-06,3.98446e-06,0.0025055,0.0068068,0.000255663,0.00207878,65.2998,1.5032e-05,-0.331615,0.461844
10.796,2.02222e-06,4.13442e-06,0.0023521,0.00626707,-0.000715858,0.000970902,66.1792,1.62666e-05,0.281978,-0.969872
10.806,2.09167e-06,4.28803e-06,0.00230097,0.00879529,-0.00102265,-0.00252317,66.8388,1.56493e-05,0.293341,0.314127
10.816,2.16389e-06,4.44408e-06,0.00204531,0.00978954,-0.000613592,-0.000136973,67.4984,1.68839e-05,-0.331615,0.439118
10.826,2.24167e-06,4.6111e-06,0.00117605,0.0079999,-0.000306796,0.00290258,68.3779,1.87357e-05,-0.240712,0.132322
10.836,2.32222e-06,4.78787e-06,0.00107379,0.00734653,-0.000715858,0.00398205,69.0375,1.87357e-05,0.134261,-0.129023
10.846,2.40833e-06,4.95489e-06,3.46945e-19,0.00595459,-0.000357929,0.00514674,69.697,1.44147e-05,-0.558871,0.314127
10.856,2.49444e-06,5.1232e-06,-0.000409062,0.00343533,-0.00056246,0.00618285,70.3566,1.33512e-05,-0.0255109,-0.112593
10.866,2.58333e-06,5.29081e-06,-0.000664725,0.00293857,-0.00076699,0.00556445,71.2361,1.45857e-05,-0.108039,-0.0115075
10.876,2.67778e-06,5.44179e-06,-0.000511327,0.00245715,-0.000971521,0.00577376,71.8957,1.71216e-05,-0.111407,0.22771
10.886,2.77778e-06,5.60887e-06,-0.000102265,0.0031308,-0.000715858,0.00608083,72.5553,1.72363e-05,0.117447,0.0302904
10.896,2.88333e-06,5.80187e-06,5.11327e-05,0.0047061,-0.000153398,0.00719645,73.4347,1.82442e-05,0.00126254,0.214631
10.906,2.99444e-06,6.00181e-06,-5.11327e-05,0.00511327,-0.000102265,0.00826645,74.0943,1.97531e-05,-0.227256,-0.181805
10.916,3.11389e-06,6.19443e-06,0.000102265,0.00471557,0.000255663,0.00727221,74.7539,2.09877e-05,0.102265,-0.124991
10.926,3.24722e-06,6.41022e-06,0.000409062,0.00548256,2.34188e-18,0.00576663,75.4135,2.59259e-05,0.0795397,-0.204531
10.936,3.39167e-06,6.65282e-06,0.000715858,0.00445991,0.000613592,0.00534053,76.293,2.65432e-05,-0.420424,0.249982
10.946,3.55e-06,6.9186e-06,0.000920388,0.00338044,0.00056246,0.00491442,76.9526,3.08642e-05,0.295433,-0.374973
10.956,3.725e-06,7.21728e-06,0.00112492,0.00451672,0.00107379,0.00451672,77.6122,3.39506e-05,0.0113628,0.409062
10.966,3.91667e-06,7.54645e-06,0.00138058,0.00480079,0.00102265,0.00653362,78.2718,3.7037e-05,0.0113628,0.0568141
10.976,4.13056e-06,7.91707e-06,0.000818123,0.00377814,0.000460194,0.00613592,79.1512,4.38272e-05,-0.318159,-0.295433
10.986,4.37222e-06,8.34742e-06,0.000460194,0.00210212,0.000255663,0.00258504,79.8108,5.12346e-05,0.0113628,-0.579504
10.996,4.63889e-06,8.83752e-06,-0.000153398,0.000255663,0.000306796,-5.68141e-05,80.4704,5.61728e-05,-0.386336,0.249982
11.006,4.93889e-06,9.38856e-06,-0.000204531,-0.00306796,0.000255663,2.84071e-05,81.3499,6.41975e-05,-0.249982,-0.0681769
11.016,5.28056e-06,1.00201e-05,-0.000102265,-0.0036077,0.000715858,5.68141e-05,82.0095,7.46914e-05,0.420424,0.147717
11.026,5.65833e-06,1.07369e-05,-0.000306796,-0.00249982,0.00102265,0.00147717,82.6691,8.20988e-05,-0.136354,0.204531
11.036,6.09167e-06,1.15538e-05,0.000306796,-0.00366451,0.00219871,0.00451672,83.3286,9.75309e-05,-0.181805,0.465876
11.046,6.58333e-06,1.24974e-05,-0.000306796,-0.00616433,0.00178964,0.00573822,84.2081,0.000110494,-0.374973,-0.477238
11.056,7.15278e-06,1.35897e-05,-5.11327e-05,-0.00693132,0.00199417,0.00423265,84.8677,0.000131481,0.44315,0.0681769
11.066,7.81944e-06,1.48808e-05,-0.000357929,-0.00590867,0.00163625,0.00437469,85.5273,0.00015679,-0.193168,0.0113628
11.076,8.62222e-06,1.64425e-05,-0.000357929,-0.00624955,0.00178964,0.00457354,86.1869,0.000196296,0.113628,0.0454513
11.086,9.625e-06,1.84016e-05,-0.000460194,-0.00545415,0.00184078,0.00329522,87.0663,0.000253704,0.0795397,-0.409062
11.096,1.09389e-05,2.09667e-05,5.11327e-05,-0.00417584,0.00209644,0.00306796,87.7259,0.000346914,0.193168,0.534053
11.106,1.27194e-05,2.4462e-05,5.11327e-05,-0.00491442,0.00199417,0.00491442,88.3855,0.000484568,-0.534053,-0.147717
11.116,1.51694e-05,2.93105e-05,0.000306796,-0.00607911,0.00260777,0.00568141,89.0451,0.000677778,0.386336,0.284071
11.126,1.84972e-05,3.59889e-05,0.00056246,-0.00497123,0.00230097,0.00480079,89.9246,0.000919753,-0.113628,-0.670406
11.136,2.29611e-05,4.50227e-05,0.000613592,-0.00596548,0.0023521,0.00264186,90.5842,0.0012284,-0.170442,0.306796
11.146,2.87111e-05,5.68715e-05,0.00122718,-0.00661884,0.00245437,0.00406221,91.2438,0.00155309,0.0909026,0.136354
11.156,3.59778e-05,7.19315e-05,0.00143172,-0.00630637,0.00255663,0.00366451,91.9034,0.00194012,0.0227256,-0.329522
11.166,4.49944e-05,9.07269e-05,0.00209644,-0.00502805,0.00260777,0.00286911,92.7828,0.00238025,0.306796,0.215894
11.176,5.6e-05,0.000113771,0.00209644,-0.0036077,0.00322136,0.00420424,93.4424,0.00287284,-0.0909026,0.136354
11.186,6.93083e-05,0.00014169,0.00148285,-0.00349407,0.00342589,0.00622114,94.102,0.00345556,0.0340885,0.295433
11.196,8.50417e-05,0.000174964,0.00168738,-0.0028123,0.00286343,0.00616433,94.7616,0.0040216,0.102265,-0.534053
11.206,0.000103508,0.000214016,0.00184078,-0.00264186,0.00332362,0.00542575,95.6411,0.0046963,-0.136354,0.44315
11.216,0.000124914,0.000259467,0.00184078,-0.00374973,0.00306796,0.00713017,96.3007,0.00539568,-0.147717,-0.0681769
11.226,0.000149447,0.000311705,0.00163625,-0.00468716,0.00337476,0.00798238,96.9602,0.00613148,1.62675e-13,0.215894
11.236,0.000177358,0.000371215,0.00194304,-0.00292593,0.0028123,0.00798238,97.6198,0.00693827,0.545415,-0.352247
11.246,0.000208619,0.000438207,0.00173851,-0.00102265,0.00271003,0.00826645,98.2794,0.00767531,-0.272708,0.499964
11.256,0.000243458,0.000512836,0.00173851,-0.00164761,0.00260777,0.0103402,98.939,0.0085216,0.0340885,-0.102265
11.266,0.000282006,0.000595584,0.00143172,-0.0016192,0.0026589,0.00960158,99.5986,0.00937346,-0.0340885,-0.204531
11.276,0.000324414,0.000686718,0.00153398,-0.000113628,0.00276117,0.00855052,100.258,0.0102636,0.44315,-0.0113628
11.286,0.000371036,0.000786847,0.00148285,0.0016192,0.00276117,0.00909026,100.918,0.0112784,-0.193168,0.227256
11.296,0.000421944,0.000896465,0.00153398,0.00303955,0.00230097,0.00852212,101.577,0.0122451,0.488601,-0.454513
11.306,0.000477489,0.00101597,0.00143172,0.00539734,0.00214757,0.00701654,102.237,0.0133543,-0.113628,0.204531
11.316,0.000537919,0.00114614,0.00143172,0.00570982,0.00199417,0.0076415,102.897,0.0144944,0.0454513,0.0113628
11.326,0.000603597,0.0012876,0.00127832,0.00545415,0.00138058,0.00701654,103.556,0.0157389,-0.193168,-0.193168
11.336,0.000674875,0.00144119,0.00138058,0.00428946,0.000306796,0.00409062,104.216,0.0170605,-0.0681769,-0.499964
11.346,0.0007521,0.00160766,0.00189191,0.00454513,0.000613592,0.00167602,104.656,0.018458,0.227256,0.181805
11.356,0.000835681,0.00178786,0.00148285,0.00480079,0.000255663,0.00130672,105.315,0.0199599,-0.215894,-0.124991
11.366,0.000926025,0.00198271,0.00148285,0.00383495,0.000204531,8.52212e-05,105.975,0.0215512,1.51188e-14,-0.0909026
11.376,0.0010236,0.00219317,0.00122718,0.0028123,0.000153398,-2.84071e-05,106.414,0.0232562,-0.215894,0.181805
11.386,0.00112881,0.0024202,0.00148285,0.00187487,-0.000255663,-0.00116469,107.074,0.0250432,0.102265,-0.499964
11.396,0.00124197,0.00266457,0.00112492,0.00116469,-5.11327e-05,-0.00255663,107.734,0.0268778,-0.238619,0.340885
11.406,0.00136337,0.00292686,0.000971521,-0.000340885,0.000357929,-0.00173283,108.173,0.0287623,-0.0340885,-0.102265
11.416,0.00149319,0.00320754,0.00132945,-0.000454513,-0.000255663,-0.00298274,108.613,0.0306747,0.124991,-0.227256
11.426,0.00163153,0.00350688,0.00122718,0.000681769,2.57317e-18,-0.00249982,109.273,0.0325827,0.181805,0.488601
11.436,0.00177834,0.00382484,0.00122718,0.00198849,0.000102265,-0.000312478,109.712,0.03445,0.0568141,-0.0454513
11.446,0.00193368,0.00416138,0.00107379,0.00309637,-0.000511327,-0.00136354,110.152,0.0363463,0.124991,-0.36361
11.456,0.00209752,0.00451655,0.00127832,0.00409062,-0.000715858,-0.00289752,110.592,0.0382247,0.0113628,0.0795397
11.466,0.00226977,0.00489017,0.000664725,0.00306796,-0.000664725,-0.00346566,111.032,0.040063,-0.374973,-0.147717
11.477,0.00245027,0.00526322,0.000613592,0.00204666,-0.00102265,-0.00515115,111.471,0.041686,0.187113,-0.182346
11.487,0.00263867,0.00565289,0.00076699,0.00190868,-0.00138058,-0.00853023,111.911,0.0431912,-0.275593,-0.520319
11.497,0.0028348,0.00607891,0.000409062,0.00148258,-0.00132945,-0.00995058,112.351,0.0448529,0.178919,0.559149
11.507,0.00303844,0.00652137,0.000511327,0.00190868,-0.00158511,-0.00909837,112.79,0.0464578,-0.161965,-0.293063
11.517,0.00324952,0.00697994,0.00056246,0.00210753,-0.00163625,-0.0096097,113.23,0.0480671,0.156194,0.252353
11.527,0.003468,0.00745446,0.000869256,0.00330063,-0.00194304,-0.0096097,113.45,0.0496628,0.0198398,-0.258974
11.537,0.00369386,0.00794478,0.000460194,0.00310178,-0.00184078,-0.0104619,113.89,0.0512405,-0.241505,0.138724
11.547,0.00392741,0.00845109,0.000357929,0.00139736,-0.00122718,-0.00952448,114.11,0.0529288,-0.241505,0.16145
11.557,0.00416877,0.00897363,-0.000153398,-0.000307067,-0.00143172,-0.00912678,114.549,0.0545436,-0.127877,-0.111258
11.567,0.00441811,0.00951221,0.000204531,-0.000647951,-0.00132945,-0.0103483,114.769,0.0561671,0.122105,-0.190797
11.577,0.00467561,0.0100668,0.000357929,-0.000363881,-0.00132945,-0.0106324,115.209,0.0577807,-0.105151,0.263715
11.587,0.00494114,0.0106369,0.00056246,-0.000335474,-0.00148285,-0.0101778,115.429,0.0592239,0.0539283,-0.145346
11.597,0.0052148,0.0112218,0.000613592,-0.000960429,-0.00112492,-0.0102631,115.649,0.0607307,-0.321045,0.172813
11.607,0.00549636,0.0118211,0.000920388,-0.00181264,-0.00122718,-0.0100642,115.869,0.0620498,0.133468,-0.133983
11.617,0.00578568,0.0124337,0.000869256,-0.00252282,-0.00158511,-0.0112289,116.088,0.063301,-0.377859,-0.122621
11.627,0.00608244,0.0130587,0.000818123,-0.00385795,-0.00153398,-0.0127345,116.308,0.0643918,0.0993796,-0.145346
11.637,0.00638626,0.0136944,0.000664725,-0.00277848,-0.00117605,-0.013189,116.528,0.0652936,0.178919,0.206901
11.647,0.00669683,0.0143397,0.000409062,-0.00275007,-0.00117605,-0.0116834,116.528,0.066156,-0.34377,0.229627
11.657,0.00701381,0.0149934,0.000409062,-0.00402839,-0.000460194,-0.0104051,116.748,0.0668294,-0.0028858,0.00237048
11.667,0.00733688,0.0156543,0.000409062,-0.00402839,-5.11327e-05,-0.00918359,116.968,0.067414,-0.0028858,0.252353
11.677,0.00766575,0.0163211,0.00076699,-0.00300574,-5.11327e-05,-0.00872908,117.188,0.0678998,0.213008,-0.270337
11.687,0.00800023,0.0169931,0.00056246,-0.00292052,0.000102265,-0.0084166,117.188,0.0682992,-0.389222,0.400069
11.697,0.00834014,0.0176696,0.000715858,-0.00348866,5.11327e-05,-0.00696784,117.408,0.0687325,0.235733,-0.122621
11.707,0.00868532,0.01835,0.00117605,-0.00184105,0.000204531,-0.00685422,117.408,0.0690146,0.0880168,0.115999
11.717,0.0090355,0.0190335,0.000715858,-0.00152857,0.000715858,-0.00568953,117.408,0.0692152,-0.207417,0.16145
11.727,0.00939047,0.0197191,0.00112492,-0.00152857,0.000664725,-0.00532023,117.628,0.069343,0.133468,-0.156709
11.737,0.00975012,0.0204061,0.00117605,-0.00076158,0.000204531,-0.00659855,117.628,0.0693393,-0.0596999,-0.156709
11.747,0.0101143,0.0210935,0.00132945,-0.000591137,0.000715858,-0.00566112,117.628,0.0693597,-0.0142486,0.547786
11.757,0.0104829,0.0217808,0.000869256,-0.00107406,0.000613592,-0.00370103,117.847,0.0691652,-0.218779,-0.179435
11.767,0.0108556,0.0224666,0.00107379,-0.00138653,0.000664725,-0.00381466,117.847,0.0689319,0.133468,0.093273
11.777,0.0112326,0.0231504,0.00076699,-0.00110246,0.00107379,-0.00179776,117.847,0.0686387,-0.150602,0.422795
11.787,0.011614,0.0238316,0.000613592,-0.00189786,0.00107379,0.00158268,117.847,0.0683356,-0.116514,0.263715
11.797,0.0120002,0.02451,0.000818123,-0.00275007,0.000971521,0.00212241,117.847,0.0680461,-0.116514,-0.406691
11.807,0.0123911,0.0251853,0.000920388,-0.00226715,0.000664725,0.000929316,117.847,0.0676393,0.258459,0.127362
11.817,0.012787,0.0258567,0.00112492,-0.000903615,0.000869256,0.0016679,117.847,0.0671733,-0.0596999,0.115999
11.827,0.0131879,0.0265235,0.000715858,-0.00110246,0.00107379,0.0024917,118.067,0.0665733,-0.150602,0.0705474
11.837,0.0135936,0.0271844,0.00076699,-0.00181264,0.000715858,0.002861,118.067,0.0658356,-0.0937884,-0.0203552
11.847,0.0140039,0.0278382,0.000715858,-0.00155698,-5.11327e-05,0.00118498,118.067,0.0649776,0.144831,-0.429417
11.857,0.0144186,0.0284838,0.00132945,0.000346295,0.000102265,-0.000888735,117.847,0.0639918,0.235733,0.115999
11.867,0.0148374,0.0291199,0.00102265,0.000346295,-0.000255663,-0.000349001,117.847,0.0629072,-0.50285,0.184176
11.877,0.0152599,0.0297458,0.00122718,-0.000676358,-0.000204531,-0.000121745,117.847,0.0617634,0.247096,-0.133983
11.907,0.0157182,0.0299153,0.00112492,-0.000136624,0.000357929,-0.000448426,117.847,0.0636603,0.0368841,0.16145
11.937,0.0162136,0.0299349,0.00107379,-6.08723e-05,0.000613592,0.000990865,118.287,0.0627078,0.137887,0.417745
11.947,0.0167139,0.0301341,0.000664725,-0.000501182,0.000409062,0.00229759,118.507,0.0593016,-0.0978916,0.0427716
11.958,0.017219,0.0308134,0.000664725,-0.000526883,0.000869256,0.00248291,118.727,0.0583839,0.582306,0.38077
11.967,0.0177263,0.0315529,0.000869256,0.00120459,0.000818123,0.00365707,118.727,0.056662,0.190662,0.222232
11.977,0.0182374,0.0323403,0.00107379,0.00143527,0.000613592,0.00410275,118.507,0.0564795,0.17122,0.190142
11.987,0.0187522,0.0330414,0.00127832,0.00231589,0.00127832,0.00521063,118.507,0.0556449,0.443928,0.428761
11.997,0.0192708,0.0337342,0.00112492,0.00279881,0.000869256,0.0058924,118.287,0.0548406,-0.0333109,-0.0143885
12.007,0.0197932,0.0344189,0.00102265,0.00180456,0.000715858,0.00512541,118.287,0.0540566,0.193946,0.178779
12.017,0.0203193,0.0350956,0.000818123,0.00083872,0.00056246,0.00529585,118.067,0.0532393,0.0121404,0.281045
12.027,0.0208491,0.0357642,0.00163625,0.00211704,0.000357929,0.005097,118.067,0.0523733,0.864352,0.0197
12.037,0.0213822,0.0364237,0.00112492,0.00376465,-5.11327e-05,0.00279603,117.847,0.0512887,-0.249204,-0.196194
12.047,0.0219184,0.0370729,0.000818123,0.00274199,-0.000153398,0.00143249,117.847,0.0501671,0.387113,0.46285
12.057,0.0224575,0.0377112,0.00107379,0.00313969,-0.000409062,0.00157453,117.628,0.0489511,0.114406,0.00833713
12.067,0.0229993,0.0383377,0.000153398,0.00106598,-0.00056246,0.000665501,117.628,0.0476628,-0.249204,0.201505
12.077,0.0235438,0.0389521,0.000255663,-0.000837296,0.000204531,0.00214267,117.408,0.046464,0.398476,0.633292
12.087,0.0240908,0.0395545,0.000204531,-0.000581633,-0.000102265,0.00265399,117.408,0.045185,0.182583,-0.309822
12.097,0.0246403,0.0401448,0.000153398,-0.00129181,-0.000102265,0.00120524,117.188,0.0440597,0.0689545,0.38331
12.107,0.0251926,0.040724,0.000357929,-0.00140544,-0.000255663,0.00208585,117.188,0.0430011,0.398476,0.258319
12.117,0.0257477,0.0412926,0.000409062,-0.00061004,-0.00076699,0.00143249,116.968,0.0420443,0.193946,-0.105291
12.145,0.0263368,0.0412942,0.000460194,-0.00026766,-0.000920388,1.3634e-05,116.968,0.0445878,0.24884,-0.0846428
12.153,0.026925,0.0413413,0.000460194,0.000417266,-0.000818123,-0.000444035,117.188,0.0406857,0.264551,0.153135
12.167,0.0275226,0.0418327,0.000255663,0.000422431,-0.000920388,-0.00136081,117.408,0.0430069,0.062462,-0.366644
