Time(s),Cart Position(m),Cart Velocity(m/s),Hook Angle(deg),Hook Angle Rate(deg/s),Payload Angle(deg),Payload Angle Rate(deg/s),Force(N),Cart Acceleration(m/s^2)
6.188,0,0,-0.000715858,-0.00844402,-0.00138058,-0.0266212,0,0,2.84212,-6.13139
6.206,2.77778e-09,2.61243e-09,-0.000204531,-0.0144427,-0.00112492,-0.0303694,9.67404,6.29882e-07,-1.09021,0.960789
6.218,5.55556e-09,7.48898e-09,-0.000869256,-0.0267199,-0.000664725,-0.0232576,10.1138,3.55533e-07,-0.910275,0.355893
6.228,8.33333e-09,1.30305e-08,-0.000869256,-0.029852,-0.000460194,-0.0184432,10.3336,3.55533e-07,1.69325,0.0938855
6.238,1.11111e-08,1.91262e-08,-0.000869256,-0.0229085,-0.000460194,-0.0152656,10.5535,3.55533e-07,0.714967,-0.021907
6.268,1.38889e-08,2.2174e-08,-0.000613592,-0.0210438,-0.000204531,-0.0138429,10.7734,3.55533e-07,-0.149727,-0.318287
6.278,1.66667e-08,2.52219e-08,-0.000920388,-0.0215598,0.000306796,-0.0122474,10.9932,3.55533e-07,0.479447,0.16558
6.288,1.94444e-08,3.13175e-08,-0.00056246,-0.0202668,0.00076699,-0.0114454,11.2131,3.55533e-07,0.66586,-0.889415
6.298,2.22222e-08,3.74132e-08,-0.000204531,-0.0163005,0.00117605,-0.0123504,11.433,3.55533e-07,1.07845,0.0769245
6.308,2.5e-08,4.35089e-08,-0.000255663,-0.0126797,0.00056246,-0.0113933,11.6528,3.55533e-07,0.279434,-0.516939
6.318,2.77778e-08,4.96046e-08,-6.64977e-19,-0.0119916,0.00102265,-0.0107869,11.8727,3.55533e-07,0.48,0.0572269
6.328,3.05556e-08,5.57003e-08,0.000357929,-0.00984985,0.00132945,-0.0082401,12.0925,3.55533e-07,0.791749,-0.150658
6.338,3.33333e-08,6.17959e-08,0.000920388,-0.00850052,0.000715858,-0.0078282,12.3124,3.55533e-07,0.141729,-0.579437
6.348,3.88889e-08,7.1549e-08,0.000818123,-0.00811987,0.00127832,-0.00726611,12.5323,1.5901e-06,0.743005,0.104755
6.358,4.44444e-08,8.49595e-08,0.00076699,-0.00751079,0.00107379,-0.00432181,12.7521,9.72817e-07,0.11513,-0.107128
6.368,5e-08,9.71509e-08,0.00076699,-0.00805608,0.00117605,-0.00324234,12.972,9.72817e-07,0.605141,-0.482101
6.378,5.55556e-08,1.09342e-07,0.000869256,-0.00610143,0.000460194,-0.00491061,13.1919,9.72817e-07,0.726404,-0.66184
6.388,6.11111e-08,1.21534e-07,0.00138058,-0.00417195,0.000869256,-0.00482045,13.6316,9.72817e-07,0.428439,0.228187
6.398,6.66667e-08,1.33725e-07,0.00127832,-0.00410638,0.000920388,-0.00206109,13.8515,9.72817e-07,0.273142,-0.244425
6.408,7.22222e-08,1.45916e-07,0.00112492,-0.00471159,0.00056246,-0.00240408,14.0713,9.72817e-07,0.398759,-0.658324
6.418,7.77778e-08,1.58108e-07,0.00127832,-0.00390138,0.00117605,-0.00253937,14.2912,9.72817e-07,0.688264,0.0670726
6.428,8.33333e-08,1.70299e-07,0.00148285,-0.00253452,0.00112492,-0.000125721,14.5111,9.72817e-07,0.400343,-0.144266
6.438,8.88889e-08,1.8249e-07,0.00173851,-0.0018004,0.00102265,0.00135497,14.7309,9.72817e-07,0.541819,-0.279776
6.448,9.72222e-08,1.98339e-07,0.00148285,-0.00113964,0.00173851,0.00303563,14.9508,2.20739e-06,0.369172,-0.0369953
6.458,1.05556e-07,2.17845e-07,0.00173851,-0.000949359,0.00168738,0.00340988,15.1707,1.5901e-06,0.473297,-0.699982
6.468,1.13889e-07,2.36132e-07,0.00163625,-0.000980495,0.00173851,0.00380163,15.3905,1.5901e-06,0.315309,0.222785
6.478,1.22222e-07,2.54419e-07,0.00194304,-0.000474066,0.00178964,0.00567748,15.6104,1.5901e-06,0.680878,-0.527553
6.488,1.30556e-07,2.72706e-07,0.00194304,0.00148602,0.00230097,0.00701261,15.8302,1.5901e-06,0.578613,0.188305
6.518,1.38889e-07,2.8185e-07,0.00209644,0.00311943,0.00317023,0.0102226,16.0501,1.5901e-06,0.430896,0.054792
6.528,1.47222e-07,2.90993e-07,0.00178964,0.00384381,0.00337476,0.0111458,16.27,1.5901e-06,0.371242,-0.448013
6.538,1.55556e-07,3.09281e-07,0.00153398,0.00310522,0.00337476,0.0108334,16.4898,1.5901e-06,0.382604,0.131491
6.548,1.63889e-07,3.27568e-07,0.00143172,0.00353133,0.00291456,0.00961185,16.7097,1.5901e-06,0.780303,-0.686632
6.558,1.72222e-07,3.45855e-07,0.00209644,0.00733787,0.00245437,0.00691318,16.9296,1.5901e-06,1.13255,0.0519513
6.568,1.80556e-07,3.64142e-07,0.0023521,0.0102922,0.0026589,0.00705522,17.1494,1.5901e-06,0.234888,-0.00486281
6.578,1.88889e-07,3.82429e-07,0.00271003,0.0098661,0.00230097,0.00654389,17.3693,1.5901e-06,0.462144,-0.254845
6.588,1.97222e-07,4.00716e-07,0.00276117,0.0103206,0.00127832,0.00500991,17.5892,1.5901e-06,0.621224,-0.209394
6.598,2.05556e-07,4.19003e-07,0.00322136,0.011741,0.00153398,0.00447018,17.809,1.5901e-06,0.678038,0.0633141
6.608,2.13889e-07,4.3729e-07,0.0029657,0.011741,0.00168738,0.00603256,18.0289,1.5901e-06,0.166711,0.233756
6.618,2.22222e-07,4.55577e-07,0.00317023,0.00997973,0.00173851,0.00770858,18.2488,1.5901e-06,0.416693,-0.0957654
6.628,2.30556e-07,4.73864e-07,0.00317023,0.00929796,0.00194304,0.00731088,18.4686,1.5901e-06,0.518958,-0.27757
6.638,2.38889e-07,4.92151e-07,0.00327249,0.00935477,0.00209644,0.00679955,18.6885,1.5901e-06,0.553047,0.0405885
6.648,2.47222e-07,5.10438e-07,0.00332362,0.00961044,0.00189191,0.00671433,18.9083,1.5901e-06,0.507595,-0.209394
6.658,2.55556e-07,5.28725e-07,0.00327249,0.010349,0.0023521,0.00725407,19.1282,1.5901e-06,0.666675,0.256482
6.668,2.61111e-07,5.43355e-07,0.00327249,0.0104911,0.00199417,0.00790743,19.3481,3.55533e-07,0.268976,-0.345747
6.678,2.66667e-07,5.54327e-07,0.00403948,0.0120534,0.00199417,0.00611778,19.5679,9.72817e-07,1.178,-0.254845
6.688,2.72222e-07,5.66518e-07,0.00429515,0.0144396,0.00199417,0.00569168,19.7878,9.72817e-07,0.166711,0.142854
6.698,2.77778e-07,5.76097e-07,0.00429515,0.0132222,0.00173851,0.0054279,20.0077,3.42936e-07,0.224684,-0.162087
6.708,2.86111e-07,5.87069e-07,0.00373269,0.0124268,0.00224984,0.00498286,20.2275,1.85185e-06,0.284024,0.240662
6.718,2.94444e-07,6.01034e-07,0.00378382,0.01284,0.00199417,0.00467296,20.4474,1.23457e-06,0.221575,-0.139195
6.728,3.02778e-07,6.13225e-07,0.00398835,0.0132093,0.00276117,0.00515588,20.6673,1.23457e-06,0.301115,0.519849
6.738,3.11111e-07,6.28465e-07,0.00378382,0.0129678,0.00286343,0.00659044,20.8871,1.23457e-06,0.0568141,-0.0426106
6.748,3.19444e-07,6.43704e-07,0.00403948,0.012982,0.0028123,0.00561039,21.107,1.23457e-06,0.428946,0.0227256
6.758,3.27778e-07,6.55895e-07,0.00419288,0.0138342,0.00286343,0.00407641,21.3269,1.23457e-06,-0.139195,0.181805
6.768,3.33333e-07,6.64429e-07,0.00434628,0.01284,0.00240324,0.00225836,21.5467,-1.771e-19,0.0312478,-0.0568141
6.778,3.38889e-07,6.69306e-07,0.00424401,0.0125275,0.00194304,0.00129252,21.7666,6.17284e-07,0.0994247,0.499964
6.788,3.47222e-07,6.79059e-07,0.00465307,0.0128116,0.00178964,0.00100845,21.9865,1.85185e-06,0.156239,-0.0681769
6.798,3.55556e-07,6.92469e-07,0.00465307,0.0124991,0.00127832,-0.00146296,22.2063,1.23457e-06,-0.116469,0.0113628
6.808,3.63889e-07,7.0466e-07,0.00470421,0.0109651,0.000306796,-0.00308217,22.4262,1.23457e-06,-0.0710176,0.261345
6.818,3.72222e-07,7.13194e-07,0.00470421,0.0104822,-0.00056246,-0.00561039,22.646,-1.45916e-19,0.235779,-0.318159
6.828,3.80556e-07,7.18071e-07,0.00536893,0.0121298,-0.00056246,-0.00745685,22.8659,6.17284e-07,0.372132,0.647681
6.838,3.88889e-07,7.24167e-07,0.00542007,0.0133513,-0.000613592,-0.00657623,23.0858,6.17284e-07,-0.0596548,0.124991
6.848,3.94444e-07,7.26605e-07,0.00480647,0.0118457,-0.000255663,-0.00515588,23.3056,-6.17284e-07,-0.252823,0.749946
6.858,4.02778e-07,7.29043e-07,0.00424401,0.00883459,0.000204531,-0.00319579,23.5255,1.23457e-06,-0.24146,0.0227256
6.868,4.11111e-07,7.36358e-07,0.00357929,0.00650521,0.000153398,-0.00387756,23.7454,6.17284e-07,0.0653362,0.181805
6.878,4.19444e-07,7.42454e-07,0.0029657,0.00539734,0.000409062,-0.00305376,23.9652,6.17284e-07,-0.00284071,0.534053
6.888,4.27778e-07,7.48549e-07,0.00286343,0.00451672,0.00102265,-0.00197429,24.1851,6.17284e-07,0.0653362,0.102265
6.898,4.36111e-07,7.54645e-07,0.0026589,0.00366451,0.00056246,-0.00299694,24.405,6.17284e-07,-0.048292,0.0568141
6.908,4.44444e-07,7.60741e-07,0.0026589,0.00269867,0.000153398,-0.00419004,24.6248,6.17284e-07,0.0539734,0.193168
6.918,4.55556e-07,7.66836e-07,0.00255663,0.00275548,-0.000153398,-0.00617853,24.8447,6.17284e-07,0.20169,-0.147717
6.928,4.66667e-07,7.72932e-07,0.00199417,0.00178964,-0.000153398,-0.00762729,25.0646,6.17284e-07,-0.321,0.488601
6.938,4.77778e-07,7.79028e-07,0.00138058,-0.000511327,-0.000255663,-0.00722959,25.2844,6.17284e-07,0.0312478,0.159079
6.948,4.88889e-07,7.85123e-07,0.00117605,-0.00176124,0.000204531,-0.0068319,25.7241,6.17284e-07,-0.0369292,0.454513
6.958,5e-07,7.91219e-07,0.00153398,-0.00173283,-1.38778e-18,-0.007258,25.944,6.17284e-07,0.349407,-0.170442
6.968,5.13889e-07,8.10116e-07,0.00214757,-4.26106e-05,0.000511327,-0.00813862,26.1639,1.85185e-06,0.303955,0.28123
6.978,5.27778e-07,8.3267e-07,0.00163625,5.68141e-05,0.000357929,-0.00818123,26.3837,1.23457e-06,-0.193168,-0.0795397
6.988,5.41667e-07,8.44861e-07,0.00122718,-0.000795397,0.000204531,-0.00883459,26.6036,1.23457e-06,-0.0227256,0.0113628
7.008,5.55556e-07,8.46893e-07,0.00122718,-0.000634424,0.000409062,-0.00784035,26.8235,1.23457e-06,-0.00883775,0.241144
7.018,5.66667e-07,8.46487e-07,0.00138058,-0.00139195,5.11327e-05,-0.00641999,27.0433,6.85871e-07,-0.325734,-0.00757521
7.028,5.80556e-07,8.55021e-07,0.00204531,-0.0016192,0.000357929,-0.0064484,27.2632,2.53772e-06,0.219681,0.117416
7.038,5.94444e-07,8.68431e-07,0.00271003,-0.000142035,5.11327e-05,-0.00624955,27.4831,1.92044e-06,-0.0303009,0.0946902
7.048,6.08333e-07,8.80622e-07,0.00230097,-0.000624955,-0.000511327,-0.00545415,27.7029,1.92044e-06,-0.34846,0.287858
7.058,6.22222e-07,8.92814e-07,0.00204531,-0.00275548,0.00056246,-0.00335203,27.9228,1.92044e-06,-0.291646,0.356035
7.068,6.36111e-07,9.05005e-07,0.00153398,-0.00411902,0.000511327,-0.00258504,28.1427,1.92044e-06,-0.0303009,-0.178018
7.078,6.52778e-07,9.20854e-07,0.00184078,-0.00397699,0.000409062,-0.0036361,28.3625,3.15501e-06,0.0265132,0.0719645
7.088,6.69444e-07,9.4036e-07,0.00168738,-0.00392017,0.000460194,-0.0040338,28.5824,2.53772e-06,-0.166655,0.0606017
7.098,6.83333e-07,9.5499e-07,0.00122718,-0.00517008,0.000869256,-0.00377814,28.8022,1.30316e-06,-0.291646,0.242407
7.108,6.97222e-07,9.65962e-07,0.00178964,-0.00517008,0.00138058,-0.00207371,29.0221,1.92044e-06,0.276495,0.356035
7.118,7.13889e-07,9.81811e-07,0.00168738,-0.00409062,0.00219871,-0.000426106,29.242,3.15501e-06,-0.212106,0.0946902
7.128,7.30556e-07,1.00497e-06,0.00163625,-0.00454513,0.00255663,0.00096584,29.4618,3.77229e-06,-0.087115,0.333309
7.138,7.47222e-07,1.03058e-06,0.00168738,-0.00579504,0.00240324,0.00170442,29.6817,3.15501e-06,-0.382548,-0.132566
7.148,7.63889e-07,1.05496e-06,0.0025055,-0.00602229,0.00245437,0.00113628,29.9016,3.15501e-06,0.333309,0.151504
7.158,7.83333e-07,1.083e-06,0.00311909,-0.00366451,0.00240324,0.00164761,30.1214,4.38957e-06,0.0719645,0.17423
7.168,8e-07,1.10738e-06,0.00368155,-0.00107947,0.00245437,0.0011931,30.3413,1.30316e-06,0.287858,-0.155292
7.196,8.16667e-07,1.10648e-06,0.00378382,0.000176423,0.0023521,0.000595053,30.5612,2.09143e-06,-0.16335,0.330854
7.2,8.33333e-07,1.11106e-06,0.00398835,-0.00043788,0.00245437,9.15754e-06,30.781,2.09143e-06,-0.037471,-0.245276
7.21,8.52778e-07,1.15024e-06,0.00409062,0.000239831,0.00209644,-0.0021092,31.0009,4.61096e-06,0.039286,-0.232754
7.218,8.72222e-07,1.18072e-06,0.00393722,4.72947e-05,0.00204531,-0.00258896,31.2208,3.84888e-06,-0.368373,-0.017702
7.228,8.91667e-07,1.20984e-06,0.00398835,-0.00100061,0.00214757,-0.00221651,31.4406,3.84888e-06,-0.0382898,-0.0972418
7.238,9.08333e-07,1.23423e-06,0.00368155,-0.00171079,0.00199417,-0.00161996,31.6605,3.84888e-06,-0.265546,0.0050236
7.268,9.25e-07,1.24093e-06,0.00398835,-0.00172499,0.00122718,-0.000852974,31.8804,3.38592e-06,-0.0638561,-0.162578
7.278,9.41667e-07,1.24337e-06,0.00439741,-0.00146933,0.00076699,-0.00106603,32.1002,2.15135e-06,-0.370652,-0.230755
7.288,9.58333e-07,1.26044e-06,0.00434628,-0.0017818,0.000255663,-0.00140691,32.3201,2.76863e-06,-0.302475,-0.0944011
7.298,9.77778e-07,1.28238e-06,0.00403948,-0.00246357,0.000306796,0.000467954,32.5399,4.0032e-06,-0.427466,0.291935
7.308,9.94444e-07,1.30433e-06,0.00342589,-0.00405437,-5.11327e-05,0.00302459,32.7598,2.15135e-06,-0.472918,-0.162578
7.318,1.01111e-06,1.32139e-06,0.00363042,-0.00564516,0.000153398,0.00364954,32.9797,2.76863e-06,-0.347927,-0.185304
7.328,1.02778e-06,1.33968e-06,0.00352816,-0.00632693,0.000357929,0.00413246,33.1995,2.76863e-06,-0.245661,-0.0944011
7.338,1.04722e-06,1.36528e-06,0.00342589,-0.00547472,0.000255663,0.00367795,33.4194,5.23777e-06,-0.0184048,-0.423923
7.348,1.06667e-06,1.39454e-06,0.00317023,-0.00402596,0.000204531,0.00191671,33.6393,2.76863e-06,-0.257024,-0.287569
7.358,1.08333e-06,1.41405e-06,0.00255663,-0.00371348,0.000102265,0.00123494,33.8591,2.15135e-06,-0.325201,-0.0716754
7.368,1.1e-06,1.43112e-06,0.00214757,-0.00345782,0.000306796,0.00134857,34.079,2.76863e-06,-0.20021,-0.173941
7.378,1.11944e-06,1.45306e-06,0.00301683,-0.00152614,0.00076699,0.00103609,34.2989,4.0032e-06,0.106586,-0.219392
7.388,1.13889e-06,1.47866e-06,0.00240324,-0.000702336,0.000613592,0.00132017,34.5187,3.38592e-06,-0.677448,0.00786431
7.398,1.15833e-06,1.50305e-06,0.00219871,-0.00226472,0.000715858,0.00276893,34.7386,3.38592e-06,-0.27975,-0.00349851
7.408,1.175e-06,1.52011e-06,0.00199417,-0.00254879,0.00056246,0.00370636,34.9585,9.1678e-07,-0.27975,-0.208029
7.418,1.19444e-06,1.53352e-06,0.00230097,-0.00115685,0.00122718,0.00478583,35.1783,3.38592e-06,0.129312,0.0987669
7.428,1.21389e-06,1.55303e-06,0.00194304,0.000774831,0.000664725,0.00504149,35.3982,2.76863e-06,-0.359289,-0.514825
7.438,1.23333e-06,1.57132e-06,0.00122718,-0.000134195,0.00056246,0.00296777,35.618,2.76863e-06,-0.56382,-0.310295
7.448,1.25e-06,1.58595e-06,0.00127832,-0.00163977,0.00056246,0.00262689,35.8379,1.53406e-06,-0.302475,0.0533156
7.458,1.26944e-06,1.59692e-06,0.00143172,-0.00263402,5.11327e-05,0.00157583,36.0578,2.15135e-06,-0.416104,-0.662542
7.468,1.28889e-06,1.60911e-06,0.00148285,-0.00229313,-1.87928e-19,-7.178e-05,36.2776,2.15135e-06,0.0724977,0.11013
7.478,1.30833e-06,1.6213e-06,0.000715858,-0.00169658,0.000153398,0.00117813,36.4975,2.15135e-06,-0.56382,-0.0489498
7.488,1.325e-06,1.64e-06,0.00076699,-0.00265295,-0.00056246,0.000155476,36.7174,9.1678e-07,-0.0891068,-0.551439
7.498,1.34444e-06,1.66113e-06,0.00122718,-0.00169658,-0.000715858,-0.00126488,36.9372,3.31733e-06,-0.0790065,0.0381652
7.508,1.36389e-06,1.6782e-06,0.00184078,-0.00129888,-0.000715858,-0.000923992,37.1571,8.48193e-07,-0.2949,-0.439073
7.518,1.38333e-06,1.68917e-06,0.00184078,-0.00266242,-0.00127832,-0.00197505,37.5968,1.46548e-06,-0.488068,-0.302719
7.528,1.4e-06,1.6977e-06,0.00178964,-0.00314534,-0.00076699,-0.000441072,37.8167,2.30909e-07,0.102799,0.276784
7.538,1.41944e-06,1.70624e-06,0.00143172,-0.00234994,-0.000409062,0.000297512,38.0366,2.08276e-06,-0.328989,-0.814046
7.548,1.43889e-06,1.71965e-06,0.00122718,-0.00220791,-0.000460194,-0.00149213,38.2564,1.46548e-06,-0.0449181,-0.0981887
7.558,1.45833e-06,1.72818e-06,0.00138058,-0.00189543,-0.000306796,-0.000668328,38.4763,2.30909e-07,-0.340351,-0.14364
7.568,1.48056e-06,1.73671e-06,0.00122718,-0.00232154,0.000511327,0.00103609,38.6962,2.08276e-06,-0.169909,0.0268023
7.578,1.50278e-06,1.75378e-06,0.000869256,-0.00206587,0.000664725,0.00174627,38.916,2.70005e-06,-0.158546,-0.541339
7.588,1.525e-06,1.77329e-06,0.000971521,-0.00266242,5.11327e-05,-0.000980806,39.1359,2.08276e-06,-0.431254,-0.700418
7.598,1.54444e-06,1.78426e-06,0.00112492,-0.00306012,0.000511327,-0.00331018,39.3557,-3.86375e-07,0.011896,-0.166366
7.608,1.56667e-06,1.79157e-06,0.000869256,-0.00271924,0.000869256,-0.00328178,39.5756,2.08276e-06,-0.351714,-0.177728
7.618,1.58889e-06,1.80499e-06,0.000613592,-0.00371348,0.000869256,-0.00282726,39.7955,1.46548e-06,-0.2949,-0.189091
7.628,1.61111e-06,1.81718e-06,0.00076699,-0.00521906,0.00122718,-0.00206027,40.0153,1.46548e-06,-0.431254,-0.155003
7.638,1.63333e-06,1.82571e-06,0.00076699,-0.00717914,0.00189191,-0.000441072,40.2352,2.30909e-07,-0.328989,-0.00728612
7.648,1.65556e-06,1.83424e-06,0.00122718,-0.00800295,0.00184078,0.00041114,40.4551,2.08276e-06,-0.113095,-0.461799
7.658,1.67778e-06,1.8644e-06,0.00143172,-0.00729875,0.00209644,0.000412635,40.6749,1.91177e-06,-0.275479,-0.141185
7.668,1.7e-06,1.89031e-06,0.00122718,-0.0076787,0.00189191,0.000544018,40.8948,1.91177e-06,-0.458172,-0.462717
7.678,1.72222e-06,1.8816e-06,0.000306796,-0.0103165,0.00153398,-7.89085e-06,41.1147,-6.07758e-07,-0.546292,0.0815388
7.688,1.74444e-06,1.8816e-06,0.00112492,-0.0101524,0.000613592,-0.00120414,41.3345,1.54321e-07,0.497685,-0.428946
7.698,1.76667e-06,1.88296e-06,0.00122718,-0.00785455,0.000204531,-0.00353668,41.5544,1.54321e-07,-0.389177,-0.076699
7.708,1.78889e-06,1.89271e-06,0.00143172,-0.00745685,0.000869256,-0.00254243,41.7743,1.38889e-06,0.0198849,0.434628
7.718,1.80833e-06,1.92014e-06,0.00127832,-0.00741424,0.000306796,-0.00134933,41.9941,-3.90746e-19,-0.249982,-0.295433
7.728,1.82778e-06,1.9433e-06,0.00173851,-0.00769831,0.000715858,-0.000994247,42.214,6.17284e-07,0.124991,0.340885
7.738,1.85e-06,1.95306e-06,0.00184078,-0.00710176,0.000613592,0.00102265,42.4338,1.85185e-06,0.0568141,-0.0113628
7.748,1.87222e-06,1.96281e-06,0.00204531,-0.00602229,0.00056246,0.00105106,42.6537,7.00214e-20,0.193168,-0.136354
7.758,1.89167e-06,1.96769e-06,0.00117605,-0.00568141,0.000920388,0.00184646,42.8736,6.17284e-07,-0.227256,0.340885
7.768,1.91111e-06,1.97378e-06,0.00102265,-0.00698813,0.000511327,0.00207371,43.0934,6.17284e-07,-0.102265,-0.431787
7.778,1.93333e-06,1.98353e-06,0.000511327,-0.00812442,0.00056246,0.000397699,43.3133,1.85185e-06,-0.102265,0.0681769
7.788,1.95556e-06,1.99329e-06,0.000102265,-0.00911866,0.000920388,0.00124991,43.5332,4.6967e-19,-0.0454513,0.238619
7.798,1.975e-06,1.99451e-06,-0.000357929,-0.00974362,0.000460194,0.00142035,43.753,-6.17284e-07,-0.0227256,-0.284071
7.808,1.99722e-06,2.0006e-06,-0.000664725,-0.00940273,0.000153398,0.000142035,43.9729,2.46914e-06,0.181805,7.26974e-14
7.818,2.01944e-06,2.01523e-06,-0.00127832,-0.00911866,0.00056246,0.000369292,44.1928,1.23457e-06,-0.159079,0.136354
7.828,2.04167e-06,2.02377e-06,-0.00143172,-0.0113344,0.000409062,-0.000198849,44.4126,1.79044e-19,-0.409062,-0.318159
7.838,2.06389e-06,2.02864e-06,-0.000869256,-0.0109651,-0.000153398,-0.0020169,44.6325,6.17284e-07,0.749946,-0.0454513
7.848,2.08611e-06,2.03474e-06,-0.000664725,-0.00775512,-0.000255663,-0.00269867,44.8524,6.17284e-07,-0.0795397,1.31174e-13
7.858,2.10833e-06,2.04449e-06,-0.00107379,-0.0080676,-7.22801e-20,-0.00213053,45.0722,1.85185e-06,-0.181805,0.227256
7.868,2.13056e-06,2.05424e-06,-0.000613592,-0.00838008,0.000357929,-0.00184646,45.2921,4.69219e-19,0.113628,-0.227256
7.878,2.15278e-06,2.05912e-06,-0.000306796,-0.00690291,0.000613592,-0.0012215,45.512,6.17284e-07,0.261345,0.431787
7.888,2.175e-06,2.06522e-06,-2.38524e-18,-0.00417584,0.000869256,0.000909026,45.7318,6.17284e-07,0.306796,-0.0227256
7.898,2.2e-06,2.07863e-06,-0.000613592,-0.00394858,0.000357929,0.000198849,45.9517,3.08642e-06,-0.52269,-0.306796
7.908,2.22222e-06,2.09204e-06,-0.000153398,-0.00511327,0.000153398,-0.000340885,46.1715,-6.17284e-07,0.284071,0.249982
7.918,2.24722e-06,2.09935e-06,-0.000306796,-0.00457354,0.000818123,0.00164761,46.3914,1.85185e-06,-0.159079,0.249982
7.928,2.27222e-06,2.11276e-06,0.000153398,-0.00303955,-5.11327e-05,0.00096584,46.6113,1.23457e-06,0.590867,-0.613592
7.938,2.29444e-06,2.12495e-06,0.000357929,-0.000624955,-0.000920388,-0.00139195,46.8311,1.23457e-06,-0.204531,0.159079
7.948,2.31944e-06,2.13715e-06,5.11327e-05,-0.00232938,-0.000715858,-0.00048292,47.051,1.23457e-06,-0.374973,0.193168
7.958,2.34444e-06,2.14934e-06,0.000102265,-0.00463035,-0.000511327,0.000539734,47.2709,1.23457e-06,-0.0795397,0.0113628
7.968,2.36944e-06,2.16153e-06,0.000357929,-0.00471557,-0.00056246,0.00153398,47.4907,1.23457e-06,0.238619,0.181805
7.978,2.39444e-06,2.17738e-06,0.00076699,-0.00321,0,0.00235779,47.7106,2.46914e-06,0.147717,-0.0909026
